Elev (deg)	HE SNRmargin (m)
0.18	14.16950568
0.19005	14.65779057
0.2001	15.11400088
0.21015	15.54002637
0.2202	15.94019095
0.23025	16.32107462
0.2403	16.68558483
0.25035	17.03463867
0.2604	17.36765142
0.27045	17.67930994
0.2805	17.96556742
0.29055	18.2222577
0.3006	18.44688423
0.31065	18.64185585
0.3207	18.81232232
0.33075	18.96494948
0.3408	19.1043659
0.35085	19.23637755
0.3609	19.36115133
0.37095	19.47768645
0.381	19.58151643
0.39105	19.66693471
0.4011	19.73192995
0.41115	19.77448347
0.4212	19.79790213
0.43125	19.80541817
0.4413	19.80447959
0.45135	19.79932946
0.4614	19.7938887
0.47145	19.78885686
0.4815	19.78060297
0.49155	19.76605799
0.5016	19.74124356
0.51165	19.70230308
0.5217	19.6497271
0.53175	19.58414499
0.5418	19.51045446
0.55185	19.43366483
0.5619	19.35854673
0.57195	19.28640647
0.582	19.21810775
0.59205	19.15019587
0.6021	19.08046189
0.61215	19.00405624
0.6222	18.91902536
0.63225	18.82470616
0.6423	18.72270431
0.65235	18.61645791
0.6624	18.51071263
0.67245	18.4085599
0.6825	18.31150207
0.69255	18.21966476
0.7026	18.13055163
0.71265	18.04076651
0.7227	17.94664593
0.73275	17.8471244
0.7428	17.74167689
0.75285	17.63091885
0.7629	17.51834138
0.77295	17.40789053
0.783	17.3022997
0.79305	17.20203481
0.8031	17.10744509
0.81315	17.01612047
0.8232	16.92522007
0.83325	16.83196041
0.8433	16.734354
0.85335	16.63235059
0.8634	16.52731788
0.87345	16.42177214
0.8835	16.31882187
0.89355	16.22097371
0.9036	16.1286221
0.91365	16.04150024
0.9237	15.95794624
0.93375	15.87485435
0.9438	15.78987558
0.95385	15.70166801
0.9639	15.6102012
0.97395	15.51702426
0.984	15.42431353
0.99405	15.33417899
1.0041	15.24900646
1.01415	15.1692413
1.0242	15.09394876
1.03425	15.02158473
1.0443	14.95003992
1.05435	14.87742181
1.0644	14.80231074
1.07445	14.72430912
1.0845	14.64501021
1.09455	14.56652617
1.1046	14.49099152
1.11465	14.41988435
1.1247	14.35379215
1.13475	14.29185148
1.1448	14.23254424
1.15485	14.1738911
1.1649	14.11390227
1.17495	14.05204631
1.185	13.98810442
1.19505	13.92326294
1.2051	13.85952218
1.21515	13.79827027
1.2252	13.74115081
1.23525	13.68863503
1.2453	13.63984273
1.25535	13.59337229
1.2654	13.54758859
1.27545	13.50089943
1.2855	13.45204081
1.29555	13.40144594
1.3056	13.35017206
1.31565	13.29995057
1.3257	13.25250322
1.33575	13.20886049
1.3458	13.16943174
1.35585	13.13328685
1.3659	13.09914854
1.37595	13.06539785
1.386	13.03061091
1.39605	12.99411968
1.4061	12.95604603
1.41615	12.91755167
1.4262	12.88015072
1.43625	12.8453324
1.4463	12.81426147
1.45635	12.78698048
1.4664	12.76263781
1.47645	12.73993902
1.4865	12.71772725
1.49655	12.69439549
1.5066	12.66929921
1.51665	12.64278968
1.5267	12.61633085
1.53675	12.59088261
1.5468	12.56789284
1.55685	12.54829515
1.5669	12.53222111
1.57695	12.51900784
1.587	12.50735682
1.59705	12.49552457
1.6071	12.48297238
1.61715	12.46903757
1.6272	12.45345888
1.63725	12.43794122
1.6473	12.42381857
1.65735	12.41202611
1.6674	12.40313382
1.67745	12.39795171
1.6875	12.39533522
1.69755	12.39376482
1.7076	12.39256455
1.71765	12.39023889
1.7277	12.38634147
1.73775	12.38159272
1.7478	12.37656871
1.75785	12.37280186
1.7679	12.37177528
1.77795	12.37378424
1.788	12.37882732
1.79805	12.38653249
1.8081	12.39534628
1.81815	12.40420044
1.8282	12.41180373
1.83825	12.41829968
1.8483	12.42375633
1.85835	12.429306
1.8684	12.43595415
1.87845	12.44537931
1.8885	12.45788259
1.89855	12.47345621
1.9086	12.49135494
1.91865	12.51026952
1.9287	12.52924663
1.93875	12.54735671
1.9488	12.56370591
1.95885	12.57937062
1.9689	12.59531947
1.97895	12.61288332
1.989	12.63262992
1.99905	12.6558689
2.0091	12.68232238
2.01915	12.71072508
2.0292	12.74054823
2.03925	12.7700757
2.0493	12.79831351
2.05935	12.82559458
2.0694	12.85196818
2.07945	12.87874104
2.0895	12.9073071
2.09955	12.93863313
2.1096	12.97280662
2.11965	13.01071895
2.1297	13.05067704
2.13975	13.0916949
2.1498	13.13240998
2.15985	13.17183403
2.1699	13.21039636
2.17995	13.24813879
2.19	13.2869095
2.20005	13.32724381
2.2101	13.37057197
2.22015	13.41740653
2.2302	13.46730511
2.24025	13.51976778
2.2503	13.57293329
2.26035	13.62625771
2.2704	13.67835868
2.28045	13.72926842
2.2905	13.77995828
2.30055	13.83141488
2.3106	13.88471556
2.32065	13.94172723
2.3307	14.00205109
2.34075	14.0661016
2.3508	14.13244375
2.36085	14.20001338
2.3709	14.26695644
2.38095	14.33320067
2.391	14.39839311
2.40105	14.46355108
2.4111	14.52971317
2.42115	14.59807335
2.4312	14.67046317
2.44125	14.74653362
2.4513	14.82661774
2.46135	14.90916928
2.4714	14.99269231
2.48145	15.07609546
2.4915	15.15847749
2.50155	15.24002469
2.5116	15.32215565
2.52165	15.4052263
2.5317	15.49140414
2.54175	15.58200731
2.5518	15.67670025
2.56185	15.77531828
2.5719	15.87668782
2.58195	15.97923754
2.592	16.08184066
2.60205	16.18364604
2.6121	16.28510486
2.62215	16.38673412
2.6322	16.49050612
2.64225	16.59748212
2.6523	16.70945683
2.66235	16.82605766
2.6724	16.94724945
2.68245	17.07190312
2.6925	17.1975841
2.70255	17.32349124
2.7126	17.44885177
2.72265	17.57410568
2.7327	17.6997805
2.74275	17.82797888
2.7528	17.96065688
2.76285	18.09848097
2.7729	18.24243632
2.78295	18.39101015
2.793	18.54345556
2.80305	18.69784379
2.8131	18.85202671
2.82315	19.00623222
2.8332	19.16040032
2.84325	19.3161702
2.8533	19.47523222
2.86335	19.63914603
2.8734	19.80970866
2.88345	19.98658536
2.8935	20.16969167
2.90355	20.35738695
2.9136	20.54702749
2.92365	20.73731069
2.9337	20.92731204
2.94375	21.11798959
2.9538	21.310782
2.96385	21.50823987
2.9739	21.71142972
2.98395	21.92261894
2.994	22.14239765
3.00405	22.36898281
3.0141	22.60034115
3.02415	22.8348824
3.0342	23.07054211
3.04425	23.30650401
3.0543	23.54376084
3.06435	23.78384935
3.0744	24.02965053
3.08445	24.28354993
3.0945	24.54736272
3.10455	24.82096503
3.1146	25.10280624
3.12465	25.39109205
3.1347	25.68318956
3.14475	25.97698679
3.1548	26.27202648
3.16485	26.569141
3.1749	26.87100195
3.18495	27.17973681
3.195	27.49870034
3.20505	27.82985097
3.2151	28.17355687
3.22515	28.52799651
3.2352	28.89016172
3.24525	29.25792474
3.2553	29.62789972
3.26535	29.99970142
3.2754	30.37555026
3.28545	30.75731632
3.2955	31.14887323
3.30555	31.5541435
3.3156	31.97465606
3.32565	32.41094277
3.3357	32.86063444
3.34575	33.32037338
3.3558	33.78700114
3.36585	34.25808351
3.3759	34.73225212
3.38595	35.2121426
3.396	35.70011451
3.40605	36.20148782
3.4161	36.72108724
3.42615	37.26108419
3.4362	37.82180201
3.44625	38.39963911
3.4563	38.99083394
3.46635	39.5905514
3.4764	40.19647543
3.48645	40.80860563
3.4965	41.42801493
3.50655	42.05971168
3.5166	42.71095976
3.52665	43.38602553
3.5367	44.08751838
3.54675	44.81586957
3.5568	45.56650602
3.56685	46.33516291
3.5769	47.11709887
3.58695	47.90801348
3.597	48.7079938
3.60705	49.51908201
3.6171	50.34779209
3.62715	51.20309708
3.6372	52.09157202
3.64725	53.01560752
3.6573	53.97514117
3.66735	54.96596309
3.6774	55.98044185
3.68745	57.01321015
3.6975	58.05967085
3.70755	59.11855605
3.7176	60.19557923
3.72765	61.30059455
3.7377	62.4410567
3.74775	63.62557511
3.7578	64.86005727
3.76785	66.1428481
3.7779	67.47031339
3.78795	68.8291305
3.798	70.2162065
3.80805	71.62018261
3.8181	73.04756253
3.82815	74.50114564
3.8382	75.99188816
3.84825	77.5341891
3.8583	79.14344808
3.86835	80.81961932
3.8784	82.56423853
3.88845	84.3683585
3.8985	86.21928363
3.90855	88.10942495
3.9186	90.02862401
3.92865	91.97839883
3.9387	93.96995464
3.94875	96.0167268
3.9588	98.14436228
3.96885	100.359709
3.9789	102.6744875
3.98895	105.0862831
3.999	107.5820244
4.00905	110.1499999
4.0191	112.7686358
4.02915	115.4360292
4.0392	118.1525868
4.04925	120.9285329
4.0593	123.7911132
4.06935	126.7710109
4.0794	129.8811041
4.08945	133.1390796
4.0995	136.5358913
4.10955	140.053973
4.1196	143.6784613
4.12965	147.3809886
4.1397	151.1542778
4.14975	155.0057803
4.1598	158.949501
4.16985	163.0379712
4.1799	167.285758
4.18995	171.745193
4.2	176.4120978
